Data from ChCl_U_MAYP1115451__5__10-46-53-397.txt Node

Date: Thu Jun 06 10:46:53 MDT 2024
User: Modes Lab
Spectrometer: MAYP111545
Trigger mode: 0
Integration Time (sec): 4.223000E-2
Scans to average: 1
Electric dark correction enabled: true
Nonlinearity correction enabled: false
Boxcar width: 0
XAxis mode: Wavelengths
Number of Pixels in Spectrum: 2068
>>>>>Begin Spectral Data<<<<<
165.214	1014.5
165.449	-189.5
165.683	36.5
165.918	-12.5
166.152	122.5
166.387	236.5
166.621	536.5
166.856	825.5
167.09	902.5
167.325	899.5
167.559	876.5
167.794	886.5
168.028	835.5
168.263	890.5
168.497	878.5
168.732	857.5
168.966	883.5
169.2	853.5
169.435	881.5
169.669	875.5
169.903	886.5
170.138	873.5
170.372	907.5
170.606	920.5
170.841	874.5
171.075	884.5
171.309	874.5
171.544	899.5
171.778	887.5
172.012	914.5
172.246	917.5
172.48	913.5
172.715	907.5
172.949	905.5
173.183	922.5
173.417	886.5
173.651	900.5
173.885	893.5
174.119	934.5
174.354	905.5
174.588	916.5
174.822	901.5
175.056	938.5
175.29	902.5
175.524	916.5
175.758	904.5
175.992	879.5
176.226	910.5
176.46	910.5
176.694	872.5
176.928	921.5
177.162	932.5
177.396	929.5
177.63	909.5
177.864	912.5
178.097	918.5
178.331	912.5
178.565	941.5
178.799	906.5
179.033	926.5
179.267	898.5
179.5	917.5
179.734	914.5
179.968	914.5
180.202	929.5
180.436	918.5
180.669	902.5
180.903	940.5
181.137	925.5
181.371	934.5
181.604	901.5
181.838	922.5
182.072	923.5
182.305	938.5
182.539	904.5
182.772	922.5
183.006	940.5
183.24	938.5
183.473	976.5
183.707	914.5
183.94	888.5
184.174	926.5
184.408	901.5
184.641	1005.5
184.875	975.5
185.108	934.5
185.342	948.5
185.575	918.5
185.808	934.5
186.042	907.5
186.275	910.5
186.509	972.5
186.742	972.5
186.976	922.5
187.209	929.5
187.442	970.5
187.676	909.5
187.909	950.5
188.142	939.5
188.376	934.5
188.609	932.5
188.842	931.5
189.076	957.5
189.309	909.5
189.542	978.5
189.775	974.5
190.009	918.5
190.242	949.5
190.475	947.5
190.708	975.5
190.941	931.5
191.174	950.5
191.408	966.5
191.641	975.5
191.874	969.5
192.107	984.5
192.34	979.5
192.573	1004.5
192.806	933.5
193.039	980.5
193.272	1014.5
193.505	990.5
193.738	1004.5
193.971	955.5
194.204	968.5
194.437	961.5
194.67	992.5
194.903	982.5
195.136	976.5
195.369	988.5
195.602	1013.5
195.835	1026.5
196.068	995.5
196.301	965.5
196.533	999.5
196.766	992.5
196.999	1011.5
197.232	1014.5
197.465	1022.5
197.698	1018.5
197.93	1019.5
198.163	1030.5
198.396	1049.5
198.629	989.5
198.861	998.5
199.094	1035.5
199.327	1027.5
199.559	1013.5
199.792	1029.5
200.025	1056.5
200.257	1038.5
200.49	1043.5
200.723	1054.5
200.955	1045.5
201.188	1043.5
201.42	1104.5
201.653	1052.5
201.886	1056.5
202.118	1073.5
202.351	1075.5
202.583	1061.5
202.816	1062.5
203.048	1070.5
203.281	1062.5
203.513	1084.5
203.745	1112.5
203.978	1098.5
204.21	1059.5
204.443	1092.5
204.675	1064.5
204.907	1097.5
205.14	1075.5
205.372	1088.5
205.605	1129.5
205.837	1105.5
206.069	1078.5
206.302	1117.5
206.534	1141.5
206.766	1132.5
206.998	1139.5
207.231	1112.5
207.463	1099.5
207.695	1104.5
207.927	1149.5
208.159	1158.5
208.392	1171.5
208.624	1179.5
208.856	1169.5
209.088	1166.5
209.32	1160.5
209.552	1149.5
209.784	1160.5
210.017	1146.5
210.249	1198.5
210.481	1182.5
210.713	1206.5
210.945	1220.5
211.177	1270.5
211.409	1206.5
211.641	1213.5
211.873	1254.5
212.105	1285.5
212.337	1324.5
212.569	1328.5
212.801	1325.5
213.033	1316.5
213.264	1344.5
213.496	1333.5
213.728	1414.5
213.96	1430.5
214.192	1425.5
214.424	1454.5
214.656	1515.5
214.887	1492.5
215.119	1586.5
215.351	1661.5
215.583	1699.5
215.815	1786.5
216.046	1854.5
216.278	1980.5
216.51	2076.5
216.741	2149.5
216.973	2318.5
217.205	2482.5
217.436	2578.5
217.668	2681.5
217.9	2978.5
218.131	3133.5
218.363	3445.5
218.595	3631.5
218.826	3899.5
219.058	4155.5
219.289	4448.5
219.521	4786.5
219.752	5161.5
219.984	5469.5
220.215	5837.5
220.447	6238.5
220.678	6670.5
220.91	7048.5
221.141	7487.5
221.373	7923.5
221.604	8385.5
221.836	8987.5
222.067	9457.5
222.298	9956.5
222.53	10497.5
222.761	11096.5
222.993	11601.5
223.224	12146.5
223.455	12766.5
223.686	13249.5
223.918	14060.5
224.149	14610.5
224.38	15213.5
224.612	15896.5
224.843	16236.5
225.074	16995.5
225.305	17701.5
225.536	18267.5
225.768	18876.5
225.999	19461.5
226.23	20117.5
226.461	20926.5
226.692	21476.5
226.923	22070.5
227.155	22769.5
227.386	23400.5
227.617	23889.5
227.848	24407.5
228.079	25106.5
228.31	25907.5
228.541	26601.5
228.772	27075.5
229.003	27659.5
229.234	28406.5
229.465	28789.5
229.696	29214.5
229.927	29956.5
230.158	30389.5
230.389	31212.5
230.62	31542.5
230.85	32190.5
231.081	32652.5
231.312	33160.5
231.543	33714.5
231.774	34310.5
232.005	34966.5
232.236	35403.5
232.466	35694.5
232.697	36330.5
232.928	36795.5
233.159	37473.5
233.389	37983.5
233.62	38323.5
233.851	38898.5
234.082	39288.5
234.312	39738.5
234.543	40038.5
234.774	40392.5
235.004	41014.5
235.235	41465.5
235.466	41590.5
235.696	42045.5
235.927	42379.5
236.157	43004.5
236.388	43526.5
236.618	43712.5
236.849	44095.5
237.08	44415.5
237.31	44635.5
237.541	44919.5
237.771	45366.5
238.002	45708.5
238.232	45921.5
238.463	46289.5
238.693	46822.5
238.923	47090.5
239.154	47277.5
239.384	47836.5
239.615	47733.5
239.845	48430.5
240.075	48475.5
240.306	48531.5
240.536	49001.5
240.766	49503.5
240.997	49461.5
241.227	49688.5
241.457	50033.5
241.687	50121.5
241.918	50503.5
242.148	50480.5
242.378	50587.5
242.608	51246.5
242.839	51553.5
243.069	51702.5
243.299	51709.5
243.529	51926.5
243.759	51948.5
243.989	52257.5
244.22	52372.5
244.45	52510.5
244.68	52592.5
244.91	52920.5
245.14	52753.5
245.37	53203.5
245.6	53116.5
245.83	53521.5
246.06	53749.5
246.29	53696.5
246.52	53614.5
246.75	53997.5
246.98	54173.5
247.21	54268.5
247.44	54323.5
247.67	54311.5
247.9	54373.5
248.13	54696.5
248.359	54807.5
248.589	54875.5
248.819	55003.5
249.049	55061.5
249.279	54813.5
249.509	55103.5
249.738	55125.5
249.968	55312.5
250.198	55348.5
250.428	55450.5
250.657	55230.5
250.887	55268.5
251.117	55299.5
251.347	55520.5
251.576	55427.5
251.806	55665.5
252.036	55925.5
252.265	55997.5
252.495	55631.5
252.725	55978.5
252.954	55744.5
253.184	55821.5
253.413	55819.5
253.643	55695.5
253.873	55785.5
254.102	55727.5
254.332	55679.5
254.561	55756.5
254.791	55847.5
255.02	55664.5
255.25	55623.5
255.479	55768.5
255.708	55340.5
255.938	55467.5
256.167	55749.5
256.397	55577.5
256.626	55453.5
256.856	55352.5
257.085	55367.5
257.314	55396.5
257.544	55240.5
257.773	54795.5
258.002	55152.5
258.232	54921.5
258.461	54686.5
258.69	55136.5
258.919	54859.5
259.149	54778.5
259.378	54765.5
259.607	54667.5
259.836	54690.5
260.065	54793.5
260.295	54395.5
260.524	54416.5
260.753	54066.5
260.982	54174.5
261.211	54391.5
261.44	54195.5
261.669	53899.5
261.899	54097.5
262.128	53842.5
262.357	53824.5
262.586	53950.5
262.815	53864.5
263.044	53648.5
263.273	53427.5
263.502	53502.5
263.731	53385.5
263.96	53229.5
264.189	53196.5
264.418	53224.5
264.646	52776.5
264.875	52757.5
265.104	52446.5
265.333	52522.5
265.562	52610.5
265.791	52415.5
266.02	52327.5
266.249	52311.5
266.477	52420.5
266.706	52107.5
266.935	52019.5
267.164	52006.5
267.393	51907.5
267.621	52030.5
267.85	51901.5
268.079	51583.5
268.307	51475.5
268.536	51728.5
268.765	51448.5
268.993	51766.5
269.222	51427.5
269.451	51105.5
269.679	51413.5
269.908	51371.5
270.137	51317.5
270.365	51052.5
270.594	51125.5
270.822	50979.5
271.051	51322.5
271.279	50930.5
271.508	51204.5
271.736	51084.5
271.965	50998.5
272.193	50925.5
272.422	51343.5
272.65	51200.5
272.879	50995.5
273.107	50741.5
273.336	50575.5
273.564	50953.5
273.792	50837.5
274.021	50950.5
274.249	50811.5
274.477	50872.5
274.706	50713.5
274.934	50561.5
275.162	50876.5
275.391	50924.5
275.619	50755.5
275.847	50954.5
276.075	50971.5
276.304	50801.5
276.532	50764.5
276.76	50961.5
276.988	50924.5
277.216	50948.5
277.445	51149.5
277.673	51012.5
277.901	51150.5
278.129	51070.5
278.357	50813.5
278.585	50859.5
278.813	51107.5
279.041	50964.5
279.269	51196.5
279.497	50876.5
279.725	51196.5
279.954	51410.5
280.182	51393.5
280.41	51190.5
280.637	51381.5
280.865	51300.5
281.093	51469.5
281.321	51579.5
281.549	51493.5
281.777	51433.5
282.005	51333.5
282.233	51509.5
282.461	51545.5
282.689	51425.5
282.916	51433.5
283.144	51381.5
283.372	51793.5
283.6	51708.5
283.828	51695.5
284.055	51787.5
284.283	52014.5
284.511	51743.5
284.739	51673.5
284.966	51633.5
285.194	51802.5
285.422	51445.5
285.649	51765.5
285.877	51844.5
286.105	51776.5
286.332	51833.5
286.56	51942.5
286.788	51943.5
287.015	51968.5
287.243	51997.5
287.47	51921.5
287.698	51877.5
287.925	52009.5
288.153	51912.5
288.381	52031.5
288.608	52309.5
288.836	52075.5
289.063	52332.5
289.29	52125.5
289.518	51914.5
289.745	51990.5
289.973	52088.5
290.2	52361.5
290.428	52106.5
290.655	52087.5
290.882	52077.5
291.11	52175.5
291.337	52182.5
291.564	52067.5
291.792	52224.5
292.019	52371.5
292.246	52214.5
292.473	52193.5
292.701	52389.5
292.928	52244.5
293.155	52325.5
293.382	52084.5
293.61	52073.5
293.837	52340.5
294.064	52180.5
294.291	52304.5
294.518	52208.5
294.745	52188.5
294.972	52323.5
295.2	52077.5
295.427	52062.5
295.654	52194.5
295.881	52107.5
296.108	52107.5
296.335	52297.5
296.562	52052.5
296.789	52131.5
297.016	52219.5
297.243	51983.5
297.47	51988.5
297.697	52225.5
297.924	52061.5
298.151	51911.5
298.378	51800.5
298.604	52003.5
298.831	51715.5
299.058	51617.5
299.285	51666.5
299.512	51716.5
299.739	51626.5
299.966	51308.5
300.192	51390.5
300.419	51331.5
300.646	51315.5
300.873	51398.5
301.099	51363.5
301.326	50815.5
301.553	51002.5
301.78	50666.5
302.006	50757.5
302.233	50861.5
302.46	50529.5
302.686	50247.5
302.913	50490.5
303.14	50350.5
303.366	50191.5
303.593	50454.5
303.819	50443.5
304.046	50109.5
304.272	50053.5
304.499	49787.5
304.725	49638.5
304.952	49685.5
305.179	49659.5
305.405	49571.5
305.631	49529.5
305.858	49315.5
306.084	49057.5
306.311	49134.5
306.537	49085.5
306.764	48795.5
306.99	48628.5
307.216	48582.5
307.443	48662.5
307.669	48543.5
307.895	48425.5
308.122	48389.5
308.348	48330.5
308.574	48372.5
308.801	48113.5
309.027	47918.5
309.253	48012.5
309.479	47723.5
309.706	47553.5
309.932	47440.5
310.158	47613.5
310.384	47474.5
310.61	47101.5
310.837	46938.5
311.063	46854.5
311.289	46951.5
311.515	46785.5
311.741	46907.5
311.967	46483.5
312.193	46355.5
312.419	46153.5
312.645	46058.5
312.871	46114.5
313.097	46031.5
313.323	45978.5
313.549	45822.5
313.775	45447.5
314.001	45290.5
314.227	45554.5
314.453	45283.5
314.679	45009.5
314.905	44957.5
315.131	44809.5
315.357	44738.5
315.583	44724.5
315.809	44432.5
316.034	44422.5
316.26	44129.5
316.486	44072.5
316.712	43958.5
316.938	43781.5
317.163	43637.5
317.389	43469.5
317.615	43518.5
317.841	43398.5
318.066	43067.5
318.292	43096.5
318.518	42883.5
318.743	42855.5
318.969	42654.5
319.195	42709.5
319.42	42644.5
319.646	42424.5
319.872	42476.5
320.097	42148.5
320.323	42188.5
320.548	41990.5
320.774	41912.5
320.999	41859.5
321.225	41636.5
321.45	41477.5
321.676	41287.5
321.901	41189.5
322.127	41042.5
322.352	41020.5
322.578	40966.5
322.803	40925.5
323.029	40677.5
323.254	40719.5
323.479	40800.5
323.705	40647.5
323.93	40368.5
324.155	40371.5
324.381	40195.5
324.606	40260.5
324.831	40031.5
325.057	39783.5
325.282	39915.5
325.507	39811.5
325.732	39772.5
325.958	39607.5
326.183	39423.5
326.408	39535.5
326.633	39117.5
326.858	39101.5
327.084	39056.5
327.309	38911.5
327.534	38885.5
327.759	38515.5
327.984	38585.5
328.209	38603.5
328.434	38646.5
328.659	38432.5
328.884	38298.5
329.109	38209.5
329.334	38052.5
329.559	38016.5
329.784	38110.5
330.009	37805.5
330.234	37975.5
330.459	37806.5
330.684	37652.5
330.909	37531.5
331.134	37396.5
331.359	37379.5
331.584	37436.5
331.809	37011.5
332.034	37034.5
332.259	36816.5
332.483	36808.5
332.708	36587.5
332.933	36530.5
333.158	36451.5
333.383	36374.5
333.607	36318.5
333.832	36073.5
334.057	36170.5
334.282	36022.5
334.506	36086.5
334.731	35907.5
334.956	35773.5
335.18	35784.5
335.405	35903.5
335.63	35676.5
335.854	35482.5
336.079	35408.5
336.303	35445.5
336.528	35382.5
336.753	35120.5
336.977	35229.5
337.202	34964.5
337.426	35000.5
337.651	34977.5
337.875	34628.5
338.1	34624.5
338.324	34792.5
338.549	34494.5
338.773	34543.5
338.997	34176.5
339.222	34380.5
339.446	34262.5
339.671	34198.5
339.895	33834.5
340.119	34006.5
340.344	33782.5
340.568	33930.5
340.792	33622.5
341.017	33568.5
341.241	33537.5
341.465	33510.5
341.689	33484.5
341.914	33178.5
342.138	33330.5
342.362	33289.5
342.586	33149.5
342.811	32889.5
343.035	32725.5
343.259	32834.5
343.483	32750.5
343.707	32536.5
343.931	32599.5
344.155	32439.5
344.38	32361.5
344.604	32291.5
344.828	32057.5
345.052	32184.5
345.276	32054.5
345.5	31918.5
345.724	31853.5
345.948	31774.5
346.172	31654.5
346.396	31722.5
346.62	31672.5
346.844	31675.5
347.068	31556.5
347.292	31395.5
347.515	31174.5
347.739	31601.5
347.963	31196.5
348.187	31074.5
348.411	30954.5
348.635	30926.5
348.859	31025.5
349.082	30635.5
349.306	30563.5
349.53	30419.5
349.754	30298.5
349.977	30427.5
350.201	30339.5
350.425	30072.5
350.649	30126.5
350.872	29756.5
351.096	30023.5
351.32	29910.5
351.543	29552.5
351.767	29684.5
351.99	29611.5
352.214	29601.5
352.438	29425.5
352.661	29106.5
352.885	29163.5
353.108	29156.5
353.332	29096.5
353.555	28946.5
353.779	28827.5
354.002	28879.5
354.226	28566.5
354.449	28547.5
354.673	28390.5
354.896	28409.5
355.12	28445.5
355.343	28476.5
355.566	28325.5
355.79	28164.5
356.013	28146.5
356.237	28033.5
356.46	27964.5
356.683	27948.5
356.907	27989.5
357.13	27702.5
357.353	27575.5
357.576	27616.5
357.8	27569.5
358.023	27288.5
358.246	27223.5
358.469	27240.5
358.693	27027.5
358.916	27092.5
359.139	27053.5
359.362	26817.5
359.585	26955.5
359.808	26819.5
360.031	26643.5
360.255	26635.5
360.478	26506.5
360.701	26566.5
360.924	26438.5
361.147	26547.5
361.37	26370.5
361.593	26288.5
361.816	26038.5
362.039	25999.5
362.262	26074.5
362.485	26000.5
362.708	26094.5
362.931	25889.5
363.154	25790.5
363.377	25750.5
363.599	25633.5
363.822	25557.5
364.045	25462.5
364.268	25558.5
364.491	25468.5
364.714	25396.5
364.936	25369.5
365.159	25380.5
365.382	25373.5
365.605	25166.5
365.828	25358.5
366.05	25166.5
366.273	25297.5
366.496	25225.5
366.718	25386.5
366.941	25375.5
367.164	25337.5
367.386	25260.5
367.609	25204.5
367.832	25221.5
368.054	25081.5
368.277	24908.5
368.5	24883.5
368.722	24896.5
368.945	24785.5
369.167	24566.5
369.39	24524.5
369.612	24421.5
369.835	24255.5
370.057	24291.5
370.28	24251.5
370.502	24286.5
370.725	24046.5
370.947	23997.5
371.169	24084.5
371.392	23887.5
371.614	23971.5
371.837	23882.5
372.059	23847.5
372.281	23758.5
372.504	23822.5
372.726	23741.5
372.948	23468.5
373.171	23566.5
373.393	23796.5
373.615	23690.5
373.837	23603.5
374.06	23590.5
374.282	23677.5
374.504	23655.5
374.726	23852.5
374.948	23714.5
375.17	23808.5
375.393	24027.5
375.615	23777.5
375.837	23542.5
376.059	23635.5
376.281	23578.5
376.503	23570.5
376.725	23662.5
376.947	23729.5
377.169	23853.5
377.391	23877.5
377.613	23939.5
377.835	23975.5
378.057	24003.5
378.279	24081.5
378.501	24033.5
378.723	24142.5
378.945	24193.5
379.167	24657.5
379.389	24664.5
379.611	24416.5
379.833	24114.5
380.054	23855.5
380.276	23857.5
380.498	24052.5
380.72	23825.5
380.942	24057.5
381.163	23871.5
381.385	23797.5
381.607	23520.5
381.829	23608.5
382.05	23721.5
382.272	23917.5
382.494	24173.5
382.716	24201.5
382.937	24074.5
383.159	23934.5
383.381	23809.5
383.602	23705.5
383.824	23556.5
384.045	23720.5
384.267	23737.5
384.488	23764.5
384.71	23855.5
384.932	23939.5
385.153	23931.5
385.375	23699.5
385.596	23681.5
385.818	23534.5
386.039	23862.5
386.261	23856.5
386.482	23714.5
386.703	23915.5
386.925	24235.5
387.146	24171.5
387.368	24499.5
387.589	24591.5
387.81	24666.5
388.032	24652.5
388.253	24569.5
388.474	24776.5
388.696	24798.5
388.917	24747.5
389.138	24395.5
389.359	23998.5
389.581	23897.5
389.802	23797.5
390.023	23946.5
390.244	23883.5
390.465	24011.5
390.687	24005.5
390.908	24151.5
391.129	24258.5
391.35	24149.5
391.571	24509.5
391.792	24450.5
392.013	24667.5
392.234	25030.5
392.455	25371.5
392.677	25710.5
392.898	25723.5
393.119	25951.5
393.34	25646.5
393.561	25252.5
393.782	24943.5
394.003	24832.5
394.223	24889.5
394.444	24974.5
394.665	24922.5
394.886	25249.5
395.107	24860.5
395.328	24843.5
395.549	24580.5
395.77	24651.5
395.99	24553.5
396.211	24849.5
396.432	24763.5
396.653	24934.5
396.874	25043.5
397.094	25172.5
397.315	25414.5
397.536	25589.5
397.757	26029.5
397.977	26150.5
398.198	26510.5
398.419	26678.5
398.639	26585.5
398.86	26495.5
399.081	26419.5
399.301	25833.5
399.522	25694.5
399.742	25510.5
399.963	25355.5
400.184	25189.5
400.404	25233.5
400.625	24886.5
400.845	25000.5
401.066	25236.5
401.286	25265.5
401.507	25082.5
401.727	24863.5
401.948	24834.5
402.168	24770.5
402.388	24814.5
402.609	24978.5
402.829	24827.5
403.05	24974.5
403.27	24886.5
403.49	24956.5
403.711	24915.5
403.931	25089.5
404.151	25179.5
404.372	25350.5
404.592	25502.5
404.812	25819.5
405.032	26098.5
405.253	25816.5
405.473	25912.5
405.693	26329.5
405.913	25840.5
406.133	25627.5
406.353	25300.5
406.574	24944.5
406.794	24640.5
407.014	24562.5
407.234	24458.5
407.454	24404.5
407.674	24348.5
407.894	24395.5
408.114	24681.5
408.334	24774.5
408.554	25052.5
408.774	25198.5
408.994	25138.5
409.214	24988.5
409.434	24886.5
409.654	25134.5
409.874	25198.5
410.094	25236.5
410.314	24960.5
410.534	24695.5
410.754	24584.5
410.974	24466.5
411.193	24566.5
411.413	24755.5
411.633	24758.5
411.853	24731.5
412.073	24926.5
412.292	25185.5
412.512	25405.5
412.732	25818.5
412.952	25758.5
413.171	25597.5
413.391	25552.5
413.611	25603.5
413.831	25290.5
414.05	25302.5
414.27	25115.5
414.489	24925.5
414.709	24971.5
414.929	25142.5
415.148	25106.5
415.368	24971.5
415.587	25033.5
415.807	25040.5
416.026	24886.5
416.246	24929.5
416.465	25091.5
416.685	24987.5
416.904	25151.5
417.124	24837.5
417.343	24941.5
417.563	24916.5
417.782	24969.5
418.002	25197.5
418.221	24987.5
418.44	24912.5
418.66	24901.5
418.879	25100.5
419.098	24992.5
419.318	25187.5
419.537	25407.5
419.756	25089.5
419.976	25263.5
420.195	25498.5
420.414	25714.5
420.633	26122.5
420.853	26408.5
421.072	26471.5
421.291	26982.5
421.51	27398.5
421.729	27498.5
421.948	27671.5
422.168	27561.5
422.387	27223.5
422.606	27014.5
422.825	26747.5
423.044	27009.5
423.263	27171.5
423.482	27074.5
423.701	26977.5
423.92	26758.5
424.139	26376.5
424.358	26063.5
424.577	26144.5
424.796	26172.5
425.015	26189.5
425.234	26111.5
425.453	26183.5
425.672	25773.5
425.891	25603.5
426.11	25243.5
426.328	25162.5
426.547	25348.5
426.766	25463.5
426.985	25598.5
427.204	26471.5
427.422	26846.5
427.641	26793.5
427.86	26859.5
428.079	26450.5
428.297	25676.5
428.516	25797.5
428.735	26024.5
428.954	26060.5
429.172	26265.5
429.391	26651.5
429.61	27443.5
429.828	27817.5
430.047	28097.5
430.265	28381.5
430.484	27822.5
430.703	27798.5
430.921	27571.5
431.14	27209.5
431.358	26761.5
431.577	26438.5
431.795	25914.5
432.014	25690.5
432.232	25615.5
432.451	25622.5
432.669	25569.5
432.887	25738.5
433.106	25892.5
433.324	26321.5
433.543	27155.5
433.761	28430.5
433.979	28918.5
434.198	28422.5
434.416	27444.5
434.634	26355.5
434.853	26227.5
435.071	26686.5
435.289	26592.5
435.507	26543.5
435.726	26601.5
435.944	26468.5
436.162	26526.5
436.38	26813.5
436.598	27042.5
436.817	27071.5
437.035	27009.5
437.253	26606.5
437.471	26470.5
437.689	26467.5
437.907	26701.5
438.125	26988.5
438.343	27024.5
438.561	27141.5
438.78	27349.5
438.998	27419.5
439.216	27089.5
439.434	27069.5
439.652	27197.5
439.869	27167.5
440.087	26842.5
440.305	27025.5
440.523	26976.5
440.741	27364.5
440.959	27980.5
441.177	29025.5
441.395	29715.5
441.613	29962.5
441.831	29731.5
442.048	29471.5
442.266	28973.5
442.484	28567.5
442.702	28442.5
442.919	28487.5
443.137	28674.5
443.355	29113.5
443.573	29493.5
443.79	29408.5
444.008	29565.5
444.226	29253.5
444.443	29232.5
444.661	29227.5
444.879	29398.5
445.096	29318.5
445.314	29208.5
445.532	29332.5
445.749	29094.5
445.967	29281.5
446.184	29356.5
446.402	29492.5
446.619	29565.5
446.837	29425.5
447.054	29493.5
447.272	29171.5
447.489	28848.5
447.707	29110.5
447.924	28890.5
448.141	29080.5
448.359	29099.5
448.576	29221.5
448.794	29199.5
449.011	29403.5
449.228	29480.5
449.446	29611.5
449.663	29611.5
449.88	29385.5
450.098	29441.5
450.315	29593.5
450.532	29464.5
450.749	29286.5
450.967	29220.5
451.184	29393.5
451.401	29085.5
451.618	29157.5
451.835	29247.5
452.052	29435.5
452.27	29219.5
452.487	29290.5
452.704	29298.5
452.921	29379.5
453.138	29253.5
453.355	29281.5
453.572	29283.5
453.789	29164.5
454.006	29195.5
454.223	29119.5
454.44	29126.5
454.657	29076.5
454.874	29437.5
455.091	29566.5
455.308	29973.5
455.525	30271.5
455.742	29844.5
455.959	29820.5
456.176	29478.5
456.393	29491.5
456.609	29708.5
456.826	29906.5
457.043	29953.5
457.26	30030.5
457.477	30163.5
457.693	30419.5
457.91	30725.5
458.127	30758.5
458.344	31036.5
458.56	30974.5
458.777	31003.5
458.994	30828.5
459.21	30860.5
459.427	30876.5
459.644	30821.5
459.86	30633.5
460.077	30586.5
460.294	30418.5
460.51	30177.5
460.727	30233.5
460.943	30031.5
461.16	30152.5
461.376	30303.5
461.593	30150.5
461.809	29736.5
462.026	29643.5
462.242	29574.5
462.459	29482.5
462.675	29716.5
462.892	29861.5
463.108	30018.5
463.324	30248.5
463.541	30565.5
463.757	30815.5
463.974	30997.5
464.19	31115.5
464.406	31102.5
464.623	31281.5
464.839	31564.5
465.055	31598.5
465.271	31453.5
465.488	31311.5
465.704	31520.5
465.92	31451.5
466.136	31546.5
466.353	31285.5
466.569	30689.5
466.785	30505.5
467.001	30339.5
467.217	30233.5
467.433	30274.5
467.649	30425.5
467.865	30262.5
468.082	30313.5
468.298	30648.5
468.514	30576.5
468.73	30411.5
468.946	30125.5
469.162	29990.5
469.378	29995.5
469.594	29774.5
469.81	29845.5
470.026	29899.5
470.242	29799.5
470.457	30000.5
470.673	29735.5
470.889	29853.5
471.105	29873.5
471.321	30004.5
471.537	30138.5
471.753	30240.5
471.968	30419.5
472.184	30350.5
472.4	30301.5
472.616	30542.5
472.832	30942.5
473.047	31315.5
473.263	31351.5
473.479	31368.5
473.694	31384.5
473.91	31328.5
474.126	31158.5
474.341	31053.5
474.557	31315.5
474.773	31412.5
474.988	31533.5
475.204	31909.5
475.42	32163.5
475.635	32164.5
475.851	31849.5
476.066	31776.5
476.282	31848.5
476.497	31996.5
476.713	31960.5
476.928	31932.5
477.144	31871.5
477.359	31740.5
477.575	31889.5
477.79	32151.5
478.005	32473.5
478.221	32778.5
478.436	32351.5
478.651	32672.5
478.867	32169.5
479.082	32254.5
479.297	32288.5
479.513	32508.5
479.728	32666.5
479.943	32769.5
480.159	33139.5
480.374	32993.5
480.589	33094.5
480.804	32651.5
481.019	32724.5
481.235	32879.5
481.45	32734.5
481.665	32998.5
481.88	33184.5
482.095	33068.5
482.31	33077.5
482.525	32940.5
482.741	32963.5
482.956	33062.5
483.171	33108.5
483.386	33291.5
483.601	33363.5
483.816	33203.5
484.031	33415.5
484.246	33790.5
484.461	33981.5
484.676	34262.5
484.891	34444.5
485.105	34774.5
485.32	37647.5
485.535	42629.5
485.75	47544.5
485.965	51539.5
486.18	51942.5
486.395	47473.5
486.609	42605.5
486.824	37689.5
487.039	34803.5
487.254	34372.5
487.469	34059.5
487.683	33967.5
487.898	33523.5
488.113	33382.5
488.327	33042.5
488.542	33012.5
488.757	32931.5
488.972	33007.5
489.186	33012.5
489.401	33126.5
489.615	33125.5
489.83	33354.5
490.045	33148.5
490.259	32939.5
490.474	32848.5
490.688	32881.5
490.903	32849.5
491.117	32932.5
491.332	32671.5
491.546	32785.5
491.761	32599.5
491.975	32711.5
492.19	32635.5
492.404	32758.5
492.618	32781.5
492.833	32747.5
493.047	32877.5
493.262	32630.5
493.476	32744.5
493.69	32709.5
493.905	32760.5
494.119	32639.5
494.333	32608.5
494.547	32430.5
494.762	32310.5
494.976	32296.5
495.19	32400.5
495.404	32182.5
495.619	32323.5
495.833	32421.5
496.047	32595.5
496.261	32814.5
496.475	32849.5
496.689	32960.5
496.903	32643.5
497.117	32478.5
497.332	32163.5
497.546	32157.5
497.76	31871.5
497.974	31880.5
498.188	32040.5
498.402	32150.5
498.616	31909.5
498.83	32094.5
499.044	32193.5
499.258	32222.5
499.472	31955.5
499.685	31906.5
499.899	31910.5
500.113	31752.5
500.327	31570.5
500.541	31385.5
500.755	31610.5
500.969	31453.5
501.183	31752.5
501.396	31782.5
501.61	31829.5
501.824	31940.5
502.038	31851.5
502.251	31725.5
502.465	31927.5
502.679	31491.5
502.892	31718.5
503.106	31781.5
503.32	31406.5
503.533	31499.5
503.747	31473.5
503.961	31188.5
504.174	31101.5
504.388	31194.5
504.602	31083.5
504.815	30930.5
505.029	31287.5
505.242	31245.5
505.456	31101.5
505.669	31164.5
505.883	31148.5
506.096	31298.5
506.31	31359.5
506.523	31750.5
506.736	31137.5
506.95	31327.5
507.163	31091.5
507.377	30976.5
507.59	30934.5
507.803	31007.5
508.017	31260.5
508.23	31495.5
508.443	31524.5
508.657	31653.5
508.87	31430.5
509.083	31558.5
509.296	31465.5
509.51	31406.5
509.723	31486.5
509.936	31613.5
510.149	31466.5
510.363	31660.5
510.576	31688.5
510.789	31777.5
511.002	31797.5
511.215	31922.5
511.428	31929.5
511.641	32083.5
511.854	32013.5
512.067	32233.5
512.28	32253.5
512.493	32321.5
512.707	32528.5
512.92	32508.5
513.132	32450.5
513.345	32891.5
513.558	32798.5
513.771	32686.5
513.984	32785.5
514.197	32767.5
514.41	32771.5
514.623	32765.5
514.836	32858.5
515.049	32976.5
515.262	33177.5
515.474	33171.5
515.687	33349.5
515.9	33483.5
516.113	33337.5
516.325	33385.5
516.538	33726.5
516.751	33720.5
516.964	33451.5
517.176	33563.5
517.389	33259.5
517.602	33494.5
517.814	33543.5
518.027	33534.5
518.24	33707.5
518.452	33764.5
518.665	33883.5
518.877	33950.5
519.09	33936.5
519.303	34209.5
519.515	34363.5
519.728	34035.5
519.94	34089.5
520.153	33971.5
520.365	34001.5
520.578	34131.5
520.79	34036.5
521.002	33954.5
521.215	34265.5
521.427	34246.5
521.64	34259.5
521.852	34145.5
522.064	34304.5
522.277	34330.5
522.489	34357.5
522.701	34409.5
522.914	34402.5
523.126	34482.5
523.338	34257.5
523.551	34370.5
523.763	34569.5
523.975	34428.5
524.187	34545.5
524.399	34541.5
524.612	34502.5
524.824	34485.5
525.036	34533.5
525.248	34447.5
525.46	34430.5
525.672	34573.5
525.884	34491.5
526.096	34583.5
526.308	34631.5
526.521	34671.5
526.733	34805.5
526.945	34808.5
527.157	34487.5
527.369	34654.5
527.581	34577.5
527.793	34553.5
528.004	34468.5
528.216	34549.5
528.428	34603.5
528.64	34701.5
528.852	34970.5
529.064	34777.5
529.276	34728.5
529.488	34579.5
529.699	34618.5
529.911	34599.5
530.123	34409.5
530.335	34368.5
530.547	34640.5
530.758	34771.5
530.97	34500.5
531.182	34677.5
531.393	34722.5
531.605	34605.5
531.817	34715.5
532.029	34651.5
532.24	34844.5
532.452	34640.5
532.663	34781.5
532.875	34878.5
533.087	34990.5
533.298	34895.5
533.51	34945.5
533.721	34937.5
533.933	34967.5
534.144	34835.5
534.356	34915.5
534.567	34806.5
534.779	34945.5
534.99	35059.5
535.202	35163.5
535.413	34787.5
535.624	34659.5
535.836	34908.5
536.047	34606.5
536.259	34952.5
536.47	34631.5
536.681	34692.5
536.893	34819.5
537.104	34669.5
537.315	34541.5
537.526	34848.5
537.738	34946.5
537.949	34862.5
538.16	35007.5
538.371	34755.5
538.582	34752.5
538.794	34942.5
539.005	35014.5
539.216	34857.5
539.427	34903.5
539.638	35051.5
539.849	34752.5
540.06	34715.5
540.272	34766.5
540.483	34792.5
540.694	34626.5
540.905	34822.5
541.116	34814.5
541.327	34900.5
541.538	34731.5
541.749	34713.5
541.96	34674.5
542.17	34821.5
542.381	34640.5
542.592	34563.5
542.803	34777.5
543.014	34835.5
543.225	34766.5
543.436	34789.5
543.647	34616.5
543.857	34593.5
544.068	34589.5
544.279	34658.5
544.49	34825.5
544.701	34736.5
544.911	34794.5
545.122	34687.5
545.333	34623.5
545.543	34443.5
545.754	34478.5
545.965	34326.5
546.175	34354.5
546.386	34152.5
546.597	34487.5
546.807	34519.5
547.018	34556.5
547.229	34583.5
547.439	34827.5
547.65	34951.5
547.86	34905.5
548.071	34989.5
548.281	34961.5
548.492	34833.5
548.702	34648.5
548.913	34429.5
549.123	34377.5
549.333	34173.5
549.544	34051.5
549.754	34070.5
549.965	34144.5
550.175	34001.5
550.385	34138.5
550.596	34163.5
550.806	33990.5
551.016	34104.5
551.227	34145.5
551.437	33983.5
551.647	34161.5
551.857	34363.5
552.068	34538.5
552.278	34367.5
552.488	34096.5
552.698	34147.5
552.908	34115.5
553.119	34316.5
553.329	34463.5
553.539	34207.5
553.749	34099.5
553.959	34194.5
554.169	34161.5
554.379	34003.5
554.589	34089.5
554.799	33848.5
555.009	33967.5
555.219	33989.5
555.429	34014.5
555.639	34065.5
555.849	34163.5
556.059	34112.5
556.269	33713.5
556.479	33918.5
556.689	33703.5
556.899	33601.5
557.109	33555.5
557.319	33597.5
557.528	33715.5
557.738	33766.5
557.948	33769.5
558.158	33758.5
558.368	33457.5
558.577	33417.5
558.787	33314.5
558.997	33603.5
559.207	33474.5
559.416	33528.5
559.626	33621.5
559.836	33823.5
560.045	33909.5
560.255	33915.5
560.465	33731.5
560.674	33917.5
560.884	33909.5
561.093	33860.5
561.303	33772.5
561.512	33947.5
561.722	33533.5
561.932	33593.5
562.141	33499.5
562.351	33361.5
562.56	33317.5
562.769	33466.5
562.979	33663.5
563.188	33607.5
563.398	33581.5
563.607	33718.5
563.817	33675.5
564.026	33764.5
564.235	33824.5
564.445	33747.5
564.654	33752.5
564.863	33563.5
565.073	33588.5
565.282	33768.5
565.491	33671.5
565.7	33614.5
565.91	33504.5
566.119	33515.5
566.328	33510.5
566.537	33744.5
566.746	34035.5
566.956	34153.5
567.165	34355.5
567.374	34479.5
567.583	34454.5
567.792	34283.5
568.001	34610.5
568.21	34441.5
568.419	34897.5
568.628	35035.5
568.837	35191.5
569.046	35581.5
569.255	36060.5
569.464	36348.5
569.673	36897.5
569.882	36644.5
570.091	36669.5
570.3	36557.5
570.509	36369.5
570.718	36714.5
570.927	36836.5
571.135	37241.5
571.344	37176.5
571.553	37373.5
571.762	37227.5
571.971	37120.5
572.18	36569.5
572.388	35984.5
572.597	35879.5
572.806	36204.5
573.014	36878.5
573.223	37610.5
573.432	38100.5
573.641	38666.5
573.849	38583.5
574.058	38593.5
574.266	38413.5
574.475	38408.5
574.684	38164.5
574.892	37831.5
575.101	37389.5
575.309	37140.5
575.518	36891.5
575.726	36913.5
575.935	37068.5
576.143	37395.5
576.352	38134.5
576.56	38453.5
576.769	38252.5
576.977	39047.5
577.186	39405.5
577.394	40248.5
577.602	40879.5
577.811	40949.5
578.019	40180.5
578.228	39129.5
578.436	37740.5
578.644	37072.5
578.852	36682.5
579.061	36872.5
579.269	37102.5
579.477	37430.5
579.685	38231.5
579.894	38406.5
580.102	38115.5
580.31	37860.5
580.518	37358.5
580.726	38041.5
580.935	39521.5
581.143	41419.5
581.351	43037.5
581.559	43449.5
581.767	42803.5
581.975	41812.5
582.183	40378.5
582.391	38704.5
582.599	37364.5
582.807	36215.5
583.015	35224.5
583.223	34866.5
583.431	34465.5
583.639	34779.5
583.847	35363.5
584.055	35892.5
584.263	36493.5
584.471	37076.5
584.678	37109.5
584.886	37374.5
585.094	37580.5
585.302	37568.5
585.51	37118.5
585.718	36435.5
585.925	35834.5
586.133	34826.5
586.341	34594.5
586.549	34558.5
586.756	34931.5
586.964	35522.5
587.172	36269.5
587.379	36402.5
587.587	36186.5
587.795	35674.5
588.002	35347.5
588.21	34920.5
588.417	34608.5
588.625	34342.5
588.833	33619.5
589.04	33142.5
589.248	33135.5
589.455	32746.5
589.663	32833.5
589.87	32689.5
590.078	32603.5
590.285	32476.5
590.492	32071.5
590.7	31655.5
590.907	31680.5
591.115	31633.5
591.322	31863.5
591.529	31863.5
591.737	31709.5
591.944	31989.5
592.151	32536.5
592.359	33486.5
592.566	34454.5
592.773	34996.5
592.981	34838.5
593.188	34427.5
593.395	33766.5
593.602	33269.5
593.809	32581.5
594.017	32182.5
594.224	31869.5
594.431	32413.5
594.638	33064.5
594.845	33433.5
595.052	33522.5
595.259	33205.5
595.466	32717.5
595.673	32152.5
595.88	31824.5
596.088	31625.5
596.295	30998.5
596.502	30820.5
596.709	31120.5
596.915	31231.5
597.122	31508.5
597.329	31489.5
597.536	31123.5
597.743	31285.5
597.95	31079.5
598.157	31209.5
598.364	31840.5
598.571	32358.5
598.777	32718.5
598.984	32535.5
599.191	31945.5
599.398	31485.5
599.605	31488.5
599.811	31732.5
600.018	31443.5
600.225	31365.5
600.431	31448.5
600.638	31517.5
600.845	31453.5
601.052	31315.5
601.258	30993.5
601.465	30862.5
601.671	30685.5
601.878	30788.5
602.085	30884.5
602.291	30894.5
602.498	30878.5
602.704	30929.5
602.911	31171.5
603.117	31147.5
603.324	30795.5
603.53	30379.5
603.737	29501.5
603.943	28655.5
604.15	28095.5
604.356	27741.5
604.562	27189.5
604.769	26943.5
604.975	26764.5
605.181	26828.5
605.388	26883.5
605.594	26422.5
605.8	26030.5
606.007	25371.5
606.213	24909.5
606.419	24449.5
606.625	24225.5
606.832	24008.5
607.038	23843.5
607.244	23278.5
607.45	23009.5
607.656	22245.5
607.863	22070.5
608.069	21694.5
608.275	21411.5
608.481	21178.5
608.687	20851.5
608.893	20149.5
609.099	20040.5
609.305	19670.5
609.511	19607.5
609.717	19670.5
609.923	19242.5
610.129	18899.5
610.335	18112.5
610.541	17854.5
610.747	17518.5
610.953	17357.5
611.159	16952.5
611.365	16653.5
611.571	16180.5
611.776	15695.5
611.982	15280.5
612.188	15019.5
612.394	14688.5
612.6	14455.5
612.806	14131.5
613.011	13851.5
613.217	13401.5
613.423	13012.5
613.628	12819.5
613.834	12428.5
614.04	12251.5
614.246	11947.5
614.451	11531.5
614.657	11450.5
614.862	11080.5
615.068	10835.5
615.274	10720.5
615.479	10339.5
615.685	10033.5
615.89	9669.5
616.096	9450.5
616.301	9214.5
616.507	9068.5
616.712	8864.5
616.918	8644.5
617.123	8385.5
617.329	8157.5
617.534	7965.5
617.74	7654.5
617.945	7534.5
618.15	7278.5
618.356	6986.5
618.561	6682.5
618.766	6687.5
618.972	6358.5
619.177	6114.5
619.382	4730.5
619.588	1842.5
619.793	442.5
619.998	-12.5
620.203	-10.5
620.408	0.5
620.614	-1.5
